freq,v
-0.9915598290598291, 0.05530631188118784
-0.9861400462962964, 0.11850849147414744
-0.9807202635327636, 0.18903542698019793
-0.9753004807692308, 0.25035409790979113
-0.9698806980056981, 0.3102078176567655
-0.9650028935185186, 0.36319719471947165
-0.9595831107549858, 0.4184467821782176
-0.9541633279914531, 0.48022586633663344
-0.9487435452279203, 0.5480321782178219
-0.9433237624643875, 0.607299917491749
-0.9379039797008548, 0.6665676567656762
-0.932484196937322, 0.7213149752475245
-0.9270644141737893, 0.7815872524752474
-0.9221866096866098, 0.8281727000825083
-0.9173088051994303, 0.8810365099009898
-0.9113470441595443, 0.9405553836633662
-0.9053852831196582, 0.9950515676567657
-0.8994235220797722, 1.0535659034653464
-0.8929197827635329, 1.1138381806930693
-0.8864160434472935, 1.1707619980748072
-0.879370325854701, 1.2345621169259782
-0.8728665865384616, 1.2964129537953795
-0.8663628472222222, 1.3475726367279584
-0.8587751513532764, 1.4035397512965582
-0.8506454772079772, 1.4591481023102308
-0.8414318465099716, 1.5196994178584524
-0.8327601940883191, 1.573234912776992
-0.8235465633903134, 1.6259014026402638
-0.8121650195868947, 1.6794615399039905
-0.8002414975071226, 1.7312865661566157
-0.7883179754273505, 1.772837908790879
-0.7763944533475784, 1.8029740474047404
-0.7644709312678064, 1.8196402452745275
-0.7525474091880342, 1.8244346309630963
-0.7406238871082622, 1.8198685493549354
-0.7287003650284901, 1.8205534615961596
-0.716776842948718, 1.795211708670867
-0.7048533208689459, 1.7680435231023102
-0.6929297987891738, 1.7207845784578455
-0.6820902332621084, 1.6767979922992298
-0.6734185808404559, 1.6338659535596416
-0.6647469284188035, 1.5819249633296664
-0.6549913194444446, 1.5247221076274293
-0.6468616452991454, 1.4737976141364137
-0.6398159277065527, 1.422912983262612
-0.6316862535612536, 1.3630891604785478
-0.6240985576923077, 1.308467409240924
-0.6175948183760684, 1.2444281146864686
-0.6116330573361823, 1.1994750412541253
-0.6056712962962963, 1.14188153190319
-0.5997095352564104, 1.0889758663366336
-0.5937477742165242, 1.0259411097359736
-0.587244034900285, 0.9677616199119914
-0.5818242521367523, 0.9179532797029704
-0.5769464476495727, 0.8654661716171614
-0.57152666488604, 0.8127279290429041
-0.5661068821225073, 0.7534601897689766
-0.5601451210826212, 0.6948621424642463
-0.5547253383190884, 0.6329156353135312
-0.5487635772792023, 0.5679794318717586
-0.5433437945156696, 0.5098597359735972
-0.5384659900284902, 0.44791322882288176
-0.5330462072649573, 0.39119869018151787
-0.5276264245014246, 0.33406559405940595
-0.5211226851851852, 0.25872524752475234
-0.5157029024216525, 0.20221998762376225
-0.5108250979344731, 0.14069203795379526
-0.5054053151709402, 0.07941522277227664
-0.5005275106837608, 0.02203099216171589
-0.4956497061965812, -0.03811571782178236
-0.49077190170940177, -0.08972385519802017
-0.48535211894586905, -0.15146108360836097
-0.4799323361823362, -0.213407590759076
-0.47559650997151004, -0.27116852310231065
-0.4707187054843306, -0.32591584158415854
-0.46529892272079776, -0.3851835808580861
-0.45987913995726504, -0.4464603960396043
-0.4544593571937323, -0.5087417491749173
-0.4484975961538462, -0.5691814493949399
-0.4430778133903135, -0.6302908415841588
-0.43820000890313393, -0.6805177392739274
-0.4327802261396012, -0.7407900165016503
-0.4273604433760685, -0.7925237211221123
-0.4213986823361824, -0.8550562087458751
-0.4148949430199431, -0.9195140607810788
-0.4094751602564103, -0.9781121080858091
-0.4035133992165243, -1.0360524222065068
-0.39646768162393176, -1.0953082026952696
-0.3899639423076924, -1.1610217271727175
-0.3840021812678064, -1.212420585808581
-0.37695646367521374, -1.2785317398927392
-0.3682848112535614, -1.3422571163366337
-0.36069711538461546, -1.3982042995966273
-0.3536513977920229, -1.4500655645921734
-0.34552172364672373, -1.5064362881600664
-0.33685007122507127, -1.5610580393976905
-0.3265524839743591, -1.6215871587158723
-0.31571291844729354, -1.6741731985698571
-0.304873352920228, -1.7218126500150017
-0.2929498308404559, -1.766103641614162
-0.2810263087606838, -1.796924692469247
-0.291027866809118, -1.8197551005100516
-0.2571792646011397, -1.8282023514851486
-0.24525574252136761, -1.8282023514851486
-0.23333222044159552, -1.8218098372337241
-0.22140869836182342, -1.8051436393639362
-0.20948517628205132, -1.7729527640264031
-0.19864561075498588, -1.739747203887056
-0.18780604522792033, -1.6941878562856294
-0.17696647970085477, -1.643758021635498
-0.16721087072649576, -1.589903625779245
-0.1585392183048434, -1.5386801626591238
-0.15040954415954422, -1.4844620204207928
-0.14173789173789186, -1.4229340707508253
-0.13415019586894594, -1.371472428492849
-0.12764645655270668, -1.314213765126513
-0.1211427172364673, -1.26482398239824
-0.11409699964387476, -1.2068238743517217
-0.10759326032763539, -1.145116542904291
-0.1016314992877494, -1.093215415291529
-0.09512775997151002, -1.0341988105060507
-0.08862402065527075, -0.9626254812981303
-0.08320423789173803, -0.9027717615511555
-0.07724247685185193, -0.851647954974069
-0.07073873753561266, -0.7809715346534656
-0.06477697649572656, -0.7244662747524755
-0.05827323717948729, -0.6470331408140817
-0.05231147613960119, -0.588100247524753
-0.046891693376068466, -0.528832508250825
-0.04201388888888902, -0.4720761138613865
-0.03767806267806284, -0.42624406971947204
-0.0322582799145299, -0.3640882838283832
-0.026296518874644015, -0.2977887788778877
-0.021418714387464455, -0.24040454826732693
-0.016540909900284895, -0.17724422442244236
-0.011121127136752174, -0.12299917491749213
-0.0024494747150998197, -0.0058030803080306725
-0.006785300925925997, -0.07528362211221129
0.005680199430199373, 0.07853625206270598
0.010558003917378933, 0.13165119636963718
0.015977786680911654, 0.187905321782178
0.020855591168090992, 0.24993554042904265
0.025733395655270552, 0.3009158415841582
0.031153178418803273, 0.36319719471947165
0.036572961182335995, 0.419953589108911
0.04199274394586894, 0.4822349422442245
0.046870548433048276, 0.5349731848184818
0.05229033119658122, 0.6061279565456545
0.0582520922364671, 0.6705858085808578
0.06367187499999982, 0.7243285891089108
0.06854967948717938, 0.7722952764026401
0.0739694622507121, 0.827544863861386
0.08047320156695137, 0.8940955033003299
0.08697694088319086, 0.9593904702970297
0.09348068019943012, 1.0200813050055002
0.10052639779202277, 1.0903391678453558
0.10811409366096858, 1.1527640264026402
0.11515981125356123, 1.2201517808030804
0.1216635505698005, 1.279168385588559
0.1297932247150997, 1.3489279657132378
0.13900685541310542, 1.4142578124999998
0.14767850783475778, 1.476099680280528
0.15689213853276351, 1.5333722955628895
0.16610576923076925, 1.5891102000825081
0.1764033564814813, 1.6429328870387037
0.18832687856125352, 1.6954428255325533
0.2002504006410255, 1.7513773252325233
0.21217392272079771, 1.784024808730873
0.2240974448005697, 1.811877906540654
0.2360209668803417, 1.8253478472847284
0.2479444889601139, 1.8210100697569755
0.2598680110398859, 1.8239780228022802
0.2717915331196581, 1.8100514738973899
0.2837150551994301, 1.783568200570057
0.2950965990028489, 1.7524731848184816
0.30647814280626773, 1.7084561581158115
0.3184016648860397, 1.6516084420942094
0.328699252136752, 1.5982138252887788
0.3384548611111111, 1.5405156765676566
0.34821047008547, 1.4786110251650164
0.3557981659544158, 1.4327789810231022
0.36284388354700847, 1.3755561940122583
0.3704315794159543, 1.3188715523338046
0.37693531873219355, 1.2617563943894388
0.38343905804843303, 1.2062197960867516
0.3899427973646723, 1.1477413366336633
0.39644653668091157, 1.0867515322960866
0.4034922542735042, 1.0204998624862487
0.4099959935897435, 0.9598090277777778
0.4159577546296296, 0.9011272689768974
0.4208355591168089, 0.8476356229372937
0.42625534188034186, 0.7978272827282726
0.4316751246438746, 0.7371364480198017
0.4370949074074073, 0.6802126306380636
0.4430566684472934, 0.6163407590759076
0.44847645121082613, 0.5565707508250823
0.4533542556980057, 0.5023257013201317
0.45823206018518503, 0.4405466171617163
0.46419382122507113, 0.37717701457645747
0.46961360398860386, 0.32025319719471934
0.4750333867521366, 0.2591438050055004
0.4809951477920227, 0.19543935643564314
0.4869569088319088, 0.12185695132013175
0.49291866987179467, 0.054804042904290196
0.4983384526353276, -0.014509075907590763
0.5026742788461538, -0.05686709295929626
0.50701010505698, -0.1139583333333336
0.5124298878205127, -0.17523514851485178
0.5173076923076922, -0.229103496287129
0.5221854967948718, -0.28774339933993387
0.5276052795584045, -0.3455043316831685
0.5330250623219372, -0.409794760726073
0.53844484508547, -0.4670534240924096
0.5438646278490027, -0.5283302392739277
0.5487424323361823, -0.5813196163366339
0.5536202368233618, -0.6388294141914197
0.5595819978632477, -0.6997713833883394
0.5655437589031338, -0.7709261551155118
0.5709635416666665, -0.8171349009900997
0.5769253027065526, -0.8772397552255224
0.5828870637464387, -0.9336613036303634
0.5883068465099714, -0.9959426567656768
0.5942686075498576, -1.0530338971397137
0.6002303685897434, -1.107446369636964
0.6061921296296295, -1.162277399614962
0.6126958689458688, -1.2238053492849286
0.6197415865384615, -1.2771415311173984
0.6278712606837606, -1.3397457714521455
0.636542913105413, -1.4133072486936191
0.6457565438034187, -1.4760559910157687
0.6544281962250711, -1.534733763554927
0.6636418269230768, -1.5893734529702979
0.6750233707264957, -1.6498968646864691
0.6869468928062676, -1.7021784990999098
0.6988704148860398, -1.7556016539153916
0.7107939369658118, -1.7861944006900696
0.722717459045584, -1.8142758025802586
0.734640981125356, -1.8282023514851486
0.746564503205128, -1.829115567806781
0.7584880252849002, -1.8282023514851486
0.7704115473646722, -1.8156456270627066
0.7823350694444444, -1.7839113598859884
0.7942585915242164, -1.7528620049504955
0.8061821136039884, -1.7026351072607264
0.8181056356837606, -1.6469289116411643
0.828945201210826, -1.5893455491382475
0.8376168536324786, -1.541191507543612
0.8457465277777776, -1.4832063479785482
0.8538762019230768, -1.4271046970768504
0.862005876068376, -1.3714515006188126
0.8695935719373218, -1.3066797304730473
0.876097311253561, -1.260219850110011
0.8826010505698005, -1.199110457920792
0.8891047898860398, -1.1421866405390544
0.8956085292022791, -1.080658690869087
0.9010283119658118, -1.0270833333333336
0.9059061164529914, -0.9723360148514857
0.9113258992165241, -0.9211045792079209
0.9172876602564102, -0.8655201457645769
0.9232494212962963, -0.8055827145214525
0.928669204059829, -0.743301361386139
0.9340889868233617, -0.6955858085808582
0.9395087695868944, -0.6373226072607263
0.9449285523504272, -0.5740367161716171
0.9503483351139601, -0.5152712458745876
0.9557681178774928, -0.4524876237623765
0.9611879006410253, -0.3947266914191423
0.9660657051282049, -0.3402305074257428
0.9709435096153844, -0.28221844059405976
0.9763632923789174, -0.22144389438943923
0.9817830751424499, -0.15916254125412577
0.9866608796296295, -0.10228057962046222
0.9909967058404556, -0.04891450082508264
6
